Zn Content (wt. %),Co Cotent (wt. %),Fe Cotent (wt. %),N Content (at. %),O Content (at. %),S Content (at. %),Pyridinic Ratio,Pyrrolic Ratio,Graphitic Ratio,Oxidized Ratio,Content of Pyridinic Species (at. %),Content of Pyrrolic Species (at. %),Content of Graphitic Species (at. %),Content of Oxidized Species (at. %),Raman ID/IG Ratio,BET Surface Area (m2 g-1),Micropore Ratio,Mesopore Ratio,Catalyst Loading on RDE/RRDE(mg cm-2),Fe Precursor Ratio,Zn Precursor Ratio,2-Methylimidazole Precursor Ratio,Additive (Other) Precursor Ratio,ZIF Preparation Temperature (¡æ),ZIF Preparation Time (h),One-Pot Method,Post-Adsorb Method,Carbon-Derivative Adsorb Method,Pyrolysis Temperature (¡æ),Pyrolysis Time (h),Temperature Rising Rate (¡æ min-1),Seconde Pyrolysis,Acid Wash,Half Wave Potential in Acid Condition (vs. RHE),HW_0.78,HW_0.8,HW_0.82,Rotating Speed (rpm),PYMT_0.01,PYMT_0.02,PYMT_0.03
0,0,0.01,0.0551,0.083117685,0,0.509811113,0.093526499,0.303135889,0.093526499,0.028090592,0.00515331,0.016702787,0.00515331,0.986067737,1255,0.36408,0.63592,0.5,0.001,0.069132337,0.930867663,0,25,24,0,0,1,950,3,5,0,1,0.78,1,0,0,1600,1,1,0
0,0,0,0.022,0.011,0,0.42,0.01,0.48,0.1,0.00924,0.00022,0.01056,0.0022,1.38,699,0.447,0.384,0.8,0,0.3125,0.625,0,120,24,1,0,0,1100,1,16.81048918,0,0,0.675,0,0,0,900,0,0,0
0,0,0,0.022,0.011,0,0.352882704,0.01,0.551689861,0.095427435,0.007763419,0.00022,0.012137177,0.002099404,1.34,821,0.443,0.355,0.8,0,0.3125,0.625,0,120,24,1,0,0,1100,1,15.03618089,0,1,0.654,0,0,0,900,0,0,0
0,0,0,0.013,0.011,0,0.301204819,0.01,0.602409639,0.096385542,0.003915663,0.00013,0.007831325,0.001253012,1.28,658,0.21283,0.52152,0.8,0,0.238095238,0.476190476,0.238095238,120,24,0,0,1,1100,1,10.80735591,0,1,0.8,1,1,0,900,0,0,0
0.0125,0.0252,0,0.0311,0.1664,0,0.663987138,0.026045016,0.271061093,0.038906752,0.02065,0.00081,0.00843,0.00121,1.02,1539,0,0.55081,0.493627396,0,0.086206897,0.907441016,0.001814882,40,24,1,0,0,900,3,5,0,0,0.78,1,0,0,1600,1,1,0
0,0.01923348,0,0.057492343,0.097165031,0,0.440250943,0.45635012,0.103398937,0.01,0.025311058,0.026236638,0.005944647,0.000574923,0.98,1037,1,0,0.58,0,0.182761854,0.803442272,0,25,0.25,1,0,0,1000,2,5,0,0,0.72,0,0,0,1600,1,1,0
0,0.0117,0.0093,0.09069,0.130509972,0,0.25529,0.52344,0.22127,0.01,0.02315225,0.047470774,0.020066976,0.0009069,1.082694104,858.9389896,0.36623287,0.588408778,1.095,0.14247619,0.14247619,0.572571429,0,25,6,1,0,0,900,2,5,1,0,0.863,1,1,1,1600,1,1,0
0,0,0.03,0.054166792,0.085981497,0,0.42,0.18,0.175,0.225,0.022750053,0.009750023,0.009479189,0.012187528,1.26,1264.9,0.91894,0.08106,0.4,0.000954404,0.121609556,0.87743604,0,220,18,1,0,0,1000,2,10,0,0,0.805,1,1,0,1600,1,1,0
0,0,0.03,0.05014993,0.091016654,0,0.363636364,0.202020202,0.181818182,0.252525253,0.018236338,0.010131299,0.009118169,0.012664124,1.398073159,879.73393,0.394126656,0.561560728,0.4,0.00326775,0.23279029,0.763941961,0,25,24,0,1,0,1000,2,10,0,0,0.76,0,0,0,1600,1,0,0
0,0,0.0317,0.0657,0.053592308,0,0.532724505,0.080669711,0.316590563,0.070015221,0.035,0.0053,0.0208,0.0046,1.03,754,0,0.20057,0.5,0.048211364,0.043780542,0.634566493,0.321652965,25,24,0,1,0,950,3,2,0,1,0.78,1,0,0,1600,1,1,1
0.0258,0,0.0147,0.0454,0.0244,0,0.248017621,0.01,0.453964758,0.298017621,0.01126,0.000454,0.02061,0.01353,2.38,757.37,0.2,0.8,0.592286283,0.006537533,0.170940171,0.829059829,0,25,24,1,0,0,1000,2,19.73993576,0,0,0.8,1,1,0,1600,1,0,0
0.0247,0,0.0146,0.0535,0.0287,0,0.241448692,0.01,0.442655936,0.315895372,0.012917505,0.000535,0.023682093,0.016900402,1.836319817,1483.2,0.8,0.2,0.637771741,0.006389784,0.170940171,0.829059829,0,25,24,1,0,0,1000,2,20.76065771,0,0,0.72,0,0,0,1600,1,0,0
0,0.042,0,0.061,0.021,0,0.376237624,0.01,0.440594059,0.183168317,0.022950495,0.00061,0.026876238,0.011173267,1.44,324,0.52,0.35,0.8,0.076923077,0.173076923,0.75,0,60,0.5,1,0,0,900,3,30,0,1,0.79,1,0,0,900,1,1,0
0,0.048,0,0.074,0.065,0,0.453,0.01,0.412,0.135,0.033522,0.00074,0.030488,0.00999,1.49,479,0.65,0.16,0.8,0.072111051,0.162249865,0.703082747,0.062556337,60,0.5,1,0,0,900,3,30,0,1,0.81,1,1,0,900,1,1,1
0,0.05636,0,0.048,0.055,0,0.432432432,0.01,0.44044044,0.127127127,0.020756757,0.00048,0.021141141,0.006102102,1.5,500,0.71,0.07,0.8,0.073072707,0.164413592,0.712458897,0.050054805,60,0.5,1,0,0,900,3,30,0,1,0.82,1,1,1,900,1,1,0
0,0.05314,0,0.056,0.073,0,0.445362718,0.01,0.330578512,0.22405877,0.024940312,0.00056,0.018512397,0.012547291,1.48,426,0.27,0.13,0.8,0.076886112,0.172993753,0.749639596,0.000480538,60,0.5,1,0,0,900,3,30,0,1,0.82,1,1,1,900,1,1,0
0.024,0.062,0,0.091,0.024,0,0.479442489,0.01,0.496558309,0.023999202,0.043629266,0.00091,0.045186806,0.002183927,1.52,825,0.94,0.01,0.8,0.07680639,0.172814378,0.748862305,0.001516926,60,0.5,1,0,0,900,3,30,0,1,0.84,1,1,1,900,1,1,1
0,0,0.03,0.0578,0.054666539,0,0.407279029,0.022530329,0.551126516,0.019064125,0.023540728,0.001302253,0.031855113,0.001101906,1.03,1021,0.20475,0.61965,0.6,0.003557105,0.124498671,0.871944225,0,25,24,0,1,0,1000,2,5,0,1,0.8,1,1,0,1600,1,1,0
0.01,0,0.021,0.045,0.056149317,0,0.596546311,0.141287284,0.050235479,0.211930926,0.026844584,0.006357928,0.002260597,0.009536892,0.84,640,0.84429,0,0.8,0.002850201,0.190013368,0.807136431,0,60,24,1,0,0,1100,1,4.660167225,0,0,0.88,1,1,1,900,1,1,0
0,0.043,0,0.0517,0.041,0,0.513618677,0.194552529,0.291828794,0.01,0.026554086,0.010058366,0.015087549,0.000517,1.25,830,0.45982,0.4936,0.4,0,0.141339492,0.84295612,0,25,24,1,0,0,900,1,5,0,0,0.79,1,0,0,1600,1,1,0
0,0.014,0,0.067,0.341,0,0.494768311,0.278026906,0.227204783,0.01,0.033149477,0.018627803,0.01522272,0.00067,1.25,830,0.28965,0.63437,0.4,0,0.07852194,0.84295612,0,25,24,1,0,0,900,1,5,0,0,0.73,0,0,0,1600,1,1,1
0,0,0.0603,0.0482,0.0292,0,0.502074689,0.010373444,0.334024896,0.153526971,0.0242,0.0005,0.0161,0.0074,0.932375892,731,0.85636,0.14364,0.817,0.00336749,0.195017799,0.781288912,0.020325799,64.90489666,22.99691501,0,1,0,1050,1,4.416004706,1,0,0.85,1,1,1,1500,1,1,0
0,0,0.00055,0.0648,0.0269,0,0.458333333,0.063271605,0.367283951,0.111111111,0.0297,0.0041,0.0238,0.0072,1.03379892,894,0.94855,0.05145,0.817,0.00336749,0.195017799,0.781288912,0.020325799,75.3601097,9.661404457,0,1,0,1050,1,5.257256293,1,0,0.73,0,0,0,1500,1,1,0
0,0,0.00256,0.0479,0.0163,0,0.461377871,0.029227557,0.361169102,0.14822547,0.0221,0.0014,0.0173,0.0071,1.052058855,1257,0.88305,0.11695,0.817,0.00336749,0.195017799,0.781288912,0.020325799,84.69646655,15.38155393,0,1,0,1050,1,5.794854339,1,0,0.73,0,0,0,1500,1,1,0
0,0,0.00106,0.0698,0.026,0,0.437677054,0.066572238,0.325779037,0.169971671,0.030549858,0.004646742,0.022739377,0.011864023,1.037238206,923,0.93391,0.06609,0.817,0.00336749,0.195017799,0.781288912,0.020325799,72.78054008,10.79115333,0,1,0,1050,1,5.288101666,1,0,0.73,0,0,0,1500,1,1,1
0,0,0.00072,0.0742,0.016,0,0.471698113,0.080862534,0.334231806,0.113207547,0.035,0.006,0.0248,0.0084,1.054247999,1140,0.95351,0.04649,0.817,0.00336749,0.195017799,0.781288912,0.020325799,79.41534762,12.46394473,0,1,0,1050,1,4.997204484,1,0,0.7,0,0,0,1500,1,1,1
0.0032,0,0.0532,0.07432,0.10185,0,0.596365744,0.167133922,0.165862573,0.098099744,0.044321902,0.012421393,0.012326906,0.007290773,1.000442632,904.5,0.28811,0.71189,0.5,0.005570893,0.105846973,0.888582134,0,25,24,1,0,0,950,2,5,0,0,0.82,1,1,1,1600,1,1,1
0.0003,0,0.0509,0.07722,0.11,0,0.540677858,0.181225738,0.186536893,0.091263606,0.041751144,0.013994251,0.014404379,0.007047376,1.001617566,495.99,0.25259,0.74741,0.5,0.004784892,0.09091294,0.763211382,0.141090786,25,24,1,0,0,950,2,5,0,0,0.81,1,1,0,1600,1,1,1
0.0092,0,0.0553,0.07288,0.12901,0,0.551437092,0.174003826,0.166717553,0.104092202,0.040188735,0.012681399,0.012150375,0.00758624,1.005310814,706.3,0.35408,0.64592,0.5,0.005570893,0.105846973,0.888582134,0,25,24,1,0,0,950,2,5,0,0,0.81,1,1,0,1600,1,1,1
0.0002,0,0.0518,0.08448,0.09894,0,0.558098391,0.18267187,0.205042937,0.066774937,0.047148152,0.01543212,0.017322027,0.005641147,1.001823223,507.66,0.19964,0.80036,0.5,0.004784892,0.09091294,0.763211382,0.141090786,25,24,1,0,0,950,2,5,0,0,0.8,1,1,0,1600,1,1,1
0,0.0124,0.0172,0.036,0.029,0,0.353389312,0.01,0.56253128,0.084079408,0.012722015,0.00036,0.020251126,0.003026859,0.95,565,0.14338,0.54014,0.8,0.032258065,0.107526882,0.860215054,0,25,24,1,0,0,1100,1,5.187500494,0,0,0.8,1,1,0,900,1,0,0
0,0,0.027952863,0.086439271,0.086996542,0,0.534884524,0.175236368,0.233656208,0.050025034,0.046235028,0.015147304,0.020197072,0.004324127,1.035389411,980,0.29,0.71,0.4,0.019607843,0.196078431,0.784313725,0,120,4,1,0,0,900,3,3.676853866,0,0,0.765,0,0,0,1600,1,1,1
0,0,0.049,0.033,0.070879067,0,0.443030842,0.12345387,0.348089993,0.107174401,0.014620018,0.004073978,0.01148697,0.003536755,1.034127979,626,0.22,0.78,0.4,0.00990099,0.099009901,0.396039604,0.495049505,120,4,1,0,0,900,3,3.169492648,0,0,0.77,0,0,0,1600,1,0,0
0,0,0.049,0.033,0.069992114,0,0.43158479,0.118447623,0.354926861,0.114081957,0.014242298,0.003908772,0.011712586,0.003764705,1.048720301,622,0.25,0.75,0.4,0.013157895,0.131578947,0.526315789,0.328947368,120,4,1,0,0,900,3,3.324252797,0,0,0.77,0,0,0,1600,1,0,0
0.004,0,0.0112,0.034,0.019,0,0.403772473,0.01,0.457942823,0.138284704,0.013728264,0.00034,0.015570056,0.00470168,1.71,396,0.12125,0.57044,0.6,0.001475824,0.191859469,0.806664707,0,25,24,0,0,1,700,1,30,0,0,0.84,1,1,1,900,1,0,0
0.007,0,0.0033,0.032,0.022,0,0.399,0.01,0.471,0.13,0.012768,0.00032,0.015072,0.00416,1.71,396,0.12125,0.57044,0.6,0.001475824,0.191859469,0.806664707,0,25,24,0,0,1,400,1,30,0,0,0.78,1,0,0,900,1,0,0
0,0,0.0128,0.022,0.017,0,0.29,0.01,0.565,0.145,0.00638,0.00022,0.01243,0.00319,1.71,396,0.12125,0.57044,0.6,0.001475824,0.191859469,0.806664707,0,25,24,0,0,1,1100,1,30,0,0,0.79,1,0,0,900,0,0,0
0,0,0.052,0.044,0.077831835,0,0.560871246,0.172395314,0.21067357,0.055124749,0.024678335,0.007585394,0.009269637,0.002425489,0.99,1323.7,0.12926,0.87074,0.622,0.001782511,0.110913054,0.887304434,0,25,48,0,1,0,900,4,3,1,1,0.76,0,0,0,1600,1,1,0
0,0,0.012,0.117,0.080999856,0,0.541309755,0.151617013,0.196695449,0.082843953,0.063333241,0.017739191,0.023013368,0.009692743,0.95,622.4,0.6535,0.3464,0.622,0.001782511,0.110913054,0.887304434,0,25,48,0,1,0,900,2,3,0,1,0.68,0,0,0,1600,1,1,1
0,0,0.047,0.05,0.074844059,0,0.596996816,0.1535158,0.175652302,0.079723699,0.029849841,0.00767579,0.008782615,0.003986185,0.89,1263.9,0.8616,0.1383,0.622,0.001782511,0.110913054,0.887304434,0,25,48,0,1,0,900,2,3,1,1,0.72,0,0,0,1600,1,1,0
0,0,0.015,0.102,0.079567853,0,0.544245511,0.160072287,0.198069697,0.066044491,0.055513042,0.016327373,0.020203109,0.006736538,0.97,689,0.7936,0.2063,0.622,0.001782511,0.110913054,0.887304434,0,25,48,0,1,0,900,4,3,0,1,0.735,0,0,0,1600,1,1,1
0,0,0.0058,0.0701,0.056044903,0,0.2664,0.1971,0.3159,0.2206,0.01867464,0.01381671,0.02214459,0.01546406,1.97,465,0.6275,0.3724,0.4,0.042935363,0.238172864,0.686771576,0.039502003,86.51748197,13.4901488,0,1,0,1000,1,9.718282006,1,1,0.64,0,0,0,1600,1,0,0
0,0,0.0058,0.0633,0.070371464,0,0.2888,0.168,0.2384,0.3048,0.01828104,0.0106344,0.01509072,0.01929384,2.22,1167,0.4045,0.5955,0.4,0.025064534,0.263154755,0.677960496,0.03618295,77.98037169,13.21335981,0,1,0,1000,1,7.991162892,1,1,0.744,0,0,0,1600,1,0,0
0,0,0.0058,0.00707,0.060293572,0,0.2746,0.1588,0.3972,0.1694,0.001941422,0.001122716,0.002808204,0.001197658,1.98,761.3295932,0.3432,0.6567,0.4,0.0341967,0.214542564,0.677678262,0.073917616,83.01482042,13.64475816,0,1,0,1000,1,8.113887068,1,1,0.729,0,0,0,1600,0,0,0
0.006,0,0.02,0.0221,0.0118,0,0.227272727,0.01,0.613636364,0.159090909,0.005022727,0.000221,0.013561364,0.003515909,0.88,624,0.1294,0.4113,0.8,0.004775549,0.191021968,0.804202483,0,60,24,1,0,0,1100,1,6.277123915,0,0,0.85,1,1,1,900,0,0,0
0,0,0.021283566,0.058476868,0.057195917,0,0.353092784,0.136597938,0.368556701,0.141752577,0.02064776,0.00798782,0.021552042,0.008289247,0.969431144,1036,0.694,0.294,0.578986059,0.005528173,0.105035286,0.889436541,0,25,1,1,0,0,900,2,2,1,1,0.735,0,0,0,1600,1,1,0
0,0,0.021269789,0.062400608,0.064203241,0,0.384313725,0.184313725,0.321568627,0.109803922,0.02398141,0.011501289,0.020066078,0.006851831,1.011089976,774,0.613,0.342,0.57002697,0.011056346,0.099507113,0.889436541,0,25,1,1,0,0,900,2,2,1,1,0.71,0,0,0,1600,1,1,0
0,0,0.021216732,0.06081256,0.062983431,0,0.363636364,0.156565657,0.393939394,0.085858586,0.022113658,0.009521158,0.023956463,0.00522128,1.00549856,736,0.509,0.462,0.536563331,0.016584519,0.09397894,0.889436541,0,25,1,1,0,0,900,2,2,1,1,0.68,0,0,0,1600,1,1,0
0,0,0.032500722,0.065501574,0.077107417,0,0.314102564,0.173076923,0.461538462,0.051282051,0.020574212,0.011336811,0.030231496,0.003359055,1.036239507,552,0.249,0.708,0.483236761,0.027640865,0.082922594,0.889436541,0,25,1,1,0,0,900,2,2,1,1,0.605,0,0,0,1600,1,1,0
0,0.0178,0.010307455,0.0381,0.0592,0,0.188481675,0.348167539,0.248691099,0.214659686,0.007181152,0.013265183,0.009475131,0.008178534,1.009496923,260.52,0.376097205,0.543553567,0.51,0,0.073470078,0.857142857,0,25,12,1,0,0,900,3,2,1,1,0.6,0,0,0,1600,0,0,0
0,0.0031,0.010720477,0.0038,0.6809,0,0.394736842,0.01,0.105263158,0.5,0.0015,0.000038,0.0004,0.0019,1.095754811,342.37,0.604179287,0.389644544,0.51,0,0.068352925,0.857142857,0,25,12,1,0,0,900,3,2,1,1,0.65,0,0,0,1600,0,0,0
0,0.0076,0.015207762,0.0536,0.0517,0,0.167924528,0.509433962,0.096226415,0.226415094,0.009000755,0.02730566,0.005157736,0.012135849,1.017908729,234.3,0.366155676,0.537768466,0.51,0,0.081599827,0.855303221,0.001819402,25,12,1,0,0,900,3,2,1,1,0.72,0,0,0,1600,0,0,0
0,0.0076,0.013617663,0.0374,0.2766,0,0.264705882,0.318181818,0.139037433,0.278074866,0.0099,0.0119,0.0052,0.0104,1.084483274,418.75,0.362036479,0.584571302,0.51,0,0.15957586,0.784949393,0.012311358,25,12,1,0,0,900,3,2,1,1,0.6,0,0,0,1600,0,0,0
0,0,0.017857628,0.052311552,0.0586066,0,0.369507188,0.113449121,0.4086322,0.133752749,0.019329494,0.0059347,0.021376185,0.006996814,1.079277944,322,0,0.0409,0.8,0.000617115,0.285129823,0.714253063,0,25,1,1,0,0,1050,2,4,0,0,0.73,0,0,0,1600,1,0,0
0,0,0.0405,0.066,0.078683859,0,0.453339345,0.104056468,0.364197638,0.078406549,0.029920397,0.006867727,0.024037044,0.005174832,1.04,525,0,1,0.35,0.006725444,0.031649147,0.82706002,0.134565389,25,8,0,1,0,950,2,2,0,0,0.745,0,0,0,1600,1,1,0
0,0.2996,0.014511174,0.0991,0.083041952,0.0151,0.96,0.01,0.01,0.01,0.095136,0.000991,0.000991,0.000991,1.133813712,382.79,0,1,0.493552096,0.055555556,0.076500252,0.930555556,0.013888889,25,6,1,0,0,700,0.17,5,0,0,0.78,1,0,0,1600,1,1,1
0,0,0.038,0.0709,0.093642021,0,0.395061728,0.21399177,0.390946502,0.01,0.028009877,0.015172016,0.027718107,0.000709,1.041568835,1009,0.136625396,0.750168808,0.477602945,0.008031933,0.24339191,0.730175729,0.018400428,49.0672529,10.97494015,1,0,0,950,3,2,0,0,0.74,0,0,0,1600,1,1,0
0,0,0.034312249,0.088172657,0.081883449,0,0.704003407,0.248722317,0.047274276,0.01,0.062073851,0.021930508,0.004168299,0.000881727,1.018871382,681,0.323310049,0.655357025,0.5,0.019210715,0.091954023,0.908045977,0,25,1,0,1,0,900,2,5,0,1,0.78,1,0,0,1600,1,1,1
0,0,0.034271808,0.0464,0.0667,0,0.459745305,0.20030218,0.269803583,0.070148932,0.021332182,0.009294021,0.012518886,0.00325491,1.031182972,666,0.31425172,0.609841167,0.479953658,0.03612816,0.060152222,0.488092315,0.451755463,25,1,1,0,0,900,2,2,0,1,0.797,1,0,0,1600,1,1,0
0,0,0.011028058,0.051466854,0.070077986,0,0.424348864,0.146458241,0.313983844,0.126191554,0.021839901,0.007537745,0.016159761,0.006494682,0.963418195,1099.75,0.421258262,0.546753368,0.56,0.000510204,0.009693878,0.989795918,0,25,10,1,0,0,1000,1,5,1,0,0.81,1,1,0,1600,1,1,0
0,0,0.009536667,0.050232605,0.070513375,0,0.418202716,0.144578832,0.309732167,0.135768944,0.021007412,0.007262571,0.015558654,0.006820028,0.982929217,752.7,0.417248802,0.558238795,0.56,0.000306122,0.009897959,0.989795918,0,25,10,1,0,0,1000,1,5,1,0,0.77,0,0,0,1600,1,1,0
0,0,0.010672294,0.051728659,0.064543084,0,0.41291059,0.1348318,0.308968703,0.143714383,0.021359311,0.006974668,0.015982537,0.007434152,0.965339132,822.02,0.421401237,0.537231432,0.56,0.000816327,0.009387755,0.989795918,0,25,10,1,0,0,1000,1,5,1,0,0.8,1,1,0,1600,1,1,0
0,0,0.01244582,0.052391879,0.062982015,0,0.427891343,0.134880522,0.305958166,0.148268892,0.022418031,0.007066644,0.016029723,0.007768086,0.969297872,601.07,0.417625173,0.544172385,0.56,0.001020408,0.009183673,0.989795918,0,25,10,1,0,0,1000,1,5,1,0,0.8,1,1,0,1600,1,1,0
0.0345,0,0.0147,0.1015,0.085434255,0,0.552437223,0.228951256,0.171344165,0.047267356,0.056072378,0.023238552,0.017391433,0.004797637,1.06,705,0.346947793,0.641044854,0.622,0.007992644,0.47142453,0.520582826,0,25,48,0,1,0,900,4,3,0,1,0.75,0,0,0,2500,1,1,1
0,0.106,0,0.0085,0.090901242,0,0.522222222,0.477777778,0.01,0.01,0.004438889,0.004061111,0.000085,0.000085,1.158444327,484,0.356862758,0.673333016,0.6,0,0.16,0.8,0,25,10.56581926,1,0,0,900,3,4.33134749,0,0,0.761,0,0,0,2500,0,0,0
0,0,0.0035,0.0497,0.0924,0,0.406438632,0.221327968,0.3722334,0.01,0.0202,0.011,0.0185,0.000497,1.72,1498,0,0.75,0.4,0.020772819,0.110025526,0.869201655,0,25,24,1,0,0,850,1,5,0,1,0.77,0,0,0,1600,1,1,0
0,0,0.0032,0.0328,0.0789,0,0.399390244,0.262195122,0.338414634,0.01,0.0131,0.0086,0.0111,0.000328,1.57,1323,0,0.757,0.4,0.020772819,0.110025526,0.869201655,0,25,24,1,0,0,950,1,5,0,1,0.78,1,0,0,1600,1,0,0
0,0,0.0039,0.0263,0.0664,0,0.209125475,0.292775665,0.498098859,0.01,0.0055,0.0077,0.0131,0.000263,1.38,1376,0,0.751,0.4,0.020772819,0.110025526,0.869201655,0,25,24,1,0,0,1050,1,5,0,1,0.77,0,0,0,1600,0,0,0
0,0.015,0,0.1029,0.0506,0,0.627793975,0.01,0.372206025,0.01,0.0646,0.001029,0.0383,0.001029,1.03,446.8,0.39,0.61,0.3,0,0.108416709,0.88897893,0,25,4,1,0,0,750,3,4.265388123,0,0,0.73,0,0,0,1600,1,1,1
0,0.0159,0,0.0903,0.0703,0,0.61572536,0.01,0.38427464,0.01,0.0556,0.000903,0.0347,0.000903,1.01,398.3,0.34,0.66,0.3,0,0.101583974,0.88897893,0,25,4,1,0,0,750,3,4.549119845,0,0,0.705,0,0,0,1600,1,1,1
0.026,0,0,0.0493,0.059406635,0,0.325803556,0.097529617,0.454165275,0.123482345,0.016062115,0.00480821,0.022390348,0.00608768,1.119127684,884.9,0.425,0.575,0.500925232,0,0.472953,0.522613065,0,25,24,0,1,0,950,1,5,0,1,0.76,0,0,0,1600,1,0,0
0.083,0.3,0,0.04,0.058264248,0,0.470812248,0.091748368,0.343663467,0.122408968,0.01883249,0.003669935,0.013746539,0.004896359,1.75,285.9,0.0937,0.9063,0.516506679,0,0.297017267,0.666666667,0,120,12,1,0,0,900,0.167,10,0,0,0.71,0,0,0,1600,1,0,0
0,0,0.0335,0.0688,0.076249316,0,0.447878082,0.137051295,0.310152118,0.116631334,0.030814012,0.009429129,0.021338466,0.008024236,0.987220894,969,0.337,0.663,0.56,0.047192072,0.008966494,0.943841435,0,60,12,1,0,0,1000,2.760517795,4.132717238,0,0,0.82,1,1,1,1600,1,1,1
0.0578,0,0.0476,0.119,0.0462,0,0.582227737,0.041996755,0.261238904,0.114536604,0.069285101,0.004997614,0.03108743,0.013629856,1.12,446.3,0.278,0.428,0.32,0.02,0.18,0.8,0,150,12,1,0,0,800,3,3.311386634,0,1,0.629,0,0,0,1600,1,1,1
0.0239,0,0.0467,0.0793,0.0401,0,0.490036629,0.033644939,0.380149627,0.096168805,0.038859905,0.002668044,0.030145865,0.007626186,1.07,526.6,0.296,0.407,0.32,0.02,0.18,0.8,0,150,12,1,0,0,900,3,3.255081184,0,1,0.709,0,0,0,1600,1,1,1
0,0,0.0345,0.0485,0.0359,0,0.354951891,0.089781949,0.399724476,0.155541684,0.017215167,0.004354425,0.019386637,0.007543772,1.01,448.9,0.294,0.424,0.32,0.02,0.18,0.8,0,150,12,1,0,0,1000,3,3.724384624,0,1,0.658,0,0,0,1600,1,0,0
0,0,0.032943988,0.0561,0.058757677,0,0.569942327,0.189980776,0.04975687,0.190320027,0.031973765,0.010657922,0.00279136,0.010676954,1.059492702,360,0.365284709,0.518981893,0.4,0.083879015,0.086979281,0.916120985,0,150,96,1,0,0,700,1,4.074948707,1,1,0.625,0,0,0,1600,1,1,1
0,0,0.027414965,0.036,0.085659459,0,0.421686747,0.265060241,0.096385542,0.21686747,0.015180723,0.009542169,0.00346988,0.007807229,1.092173942,371,0.357526127,0.548428606,0.4,0.083879015,0.081563889,0.916120985,0,150,96,1,0,0,800,1,4.540061836,1,1,0.64,0,0,0,1600,1,0,0
0,0,0.018350127,0.096,0.085047137,0,0.394925027,0.216471366,0.181351074,0.226346003,0.037912803,0.020781251,0.017409703,0.021729216,1.168990016,219,0.373956666,0.512822007,0.4,0.083879015,0.120774921,0.916120985,0,150,96,1,0,0,900,1,5.029128139,1,1,0.57,0,0,0,1600,1,1,1
0,0,0.024437284,0.045,0.08747608,0,0.457831325,0.204819277,0.060240964,0.277108434,0.02060241,0.009216867,0.002710843,0.01246988,1.091706846,572,0.41010599,0.556224616,0.4,0.000195319,0.04339334,0.956411342,0,150,96,1,0,0,1050,1,5.682419316,1,0,0.755,0,0,0,1600,1,1,0
0,0,0.074,0.082,0.049762498,0,0.96,0.01,0.01,0.01,0.07872,0.00082,0.00082,0.00082,1.017703904,647,0.351021331,0.476249714,0.8,0.046942816,0.111278531,0.866119072,0,50.84931194,23.76143361,1,0,0,700,1.5,1,1,1,0.713,0,0,0,1500,1,1,1
0,0,0.083,0.035,0.055855683,0,0.96,0.01,0.01,0.01,0.0336,0.00035,0.00035,0.00035,0.960843526,628,0.573463775,0.33950156,0.8,0.047714493,0.161672085,0.798781204,0,52.80630947,21.17164389,1,0,0,900,1.5,1,1,1,0.754,0,0,0,1500,1,1,1
0,0,0.053,0.036,0.05271549,0,0.96,0.01,0.01,0.01,0.03456,0.00036,0.00036,0.00036,0.991225436,687,0.343734309,0.464673911,0.8,0.050003829,0.112942483,0.858909544,0,51.55681831,26.20298437,1,0,0,700,1.5,1,1,1,0.811,1,1,0,1500,1,1,1
0,0,0.076,0.034,0.055096762,0,0.96,0.01,0.01,0.01,0.03264,0.00034,0.00034,0.00034,0.965909148,566,0.55665437,0.353624197,0.8,0.044288702,0.161264488,0.802962392,0,51.69899116,21.23775104,1,0,0,900,1.5,1,1,1,0.795,1,0,0,1500,1,1,1
0,0.114,0,0.064,0.0473,0,0.626973784,0.075030203,0.261266886,0.047501255,0.040126322,0.004801933,0.016721081,0.00304008,1.188257822,386,0.083,0.917,0.4,0,0.066640229,0.999876153,0,25,20,1,0,0,750,2,4.882350799,0,0,0.71,0,0,0,1600,1,1,1
0.0127,0,0.001,0.1488,0.1106,0,0.467725054,0.104792589,0.286257795,0.168029794,0.069597488,0.015593137,0.04259516,0.025002833,1.36,262,0.294564711,0.583067261,0.1,0.25,0.186287355,0.75,0,120,72,1,0,0,900,3,6.224166328,0,1,0.64,0,0,0,1600,1,1,1
0.016,0,0.0194,0.0545,0.0687,0,0.33048259,0.01,0.460191407,0.209326003,0.018011301,0.000545,0.025080432,0.011408267,1.63,216,0.6788,0.4052,0.6,0.022456704,0.663259348,0.314283948,0,87.40276899,26.22118009,0,0,0,1000,1,30,0,0,0.835,1,1,1,900,1,0,0
0,0,0.019,0.0573,0.069390877,0,0.514842097,0.211193909,0.215575621,0.04099212,0.029500452,0.012101411,0.012352483,0.002348848,1.047878088,1295,0.367,0.633,0.6,0.281668677,0.005079688,0.50161915,0.211632485,25,24,0,0,1,900,1,5,0,1,0.825,1,1,1,1600,1,1,0
0,0,0.0127,0.0674,0.077778871,0,0.575347118,0.169247875,0.177172817,0.07409745,0.038778396,0.011407307,0.011941448,0.004994168,1.029961069,917,0.8704,0.1296,0.623080117,0.20022015,0.162126643,0.699557271,0,32.21080371,16.69910522,0,1,0,900,3,1,0,1,0.77,0,0,0,1600,1,1,1
0,0.018,0,0.0994,0.071925672,0,0.546816366,0.124992759,0.280091498,0.069332995,0.054353547,0.01242428,0.027841095,0.0068917,1.059618405,1033,0.9239,0.0761,0.578598514,0,0.10047069,0.875698356,0,51.91473799,11.72271666,0,1,0,900,3,1,0,1,0.74,0,0,0,1600,1,1,1
0,0.0044,0.0071,0.099,0.096291463,0,0.576467901,0.183170902,0.161225973,0.064416838,0.057070322,0.018133919,0.015961371,0.006377267,1.059695054,962,0.8983,0.1017,0.626020613,0.460026212,0.1763244,0.696195874,0,32.88991521,32.71471721,0,1,0,900,3,1,0,1,0.75,0,0,0,1600,1,1,1
0,0,0.0068,0.1168,0.088929983,0,0.563964277,0.177858766,0.157090802,0.07093958,0.065871028,0.020773904,0.018348206,0.008285743,1.069056871,887,0.8745,0.1255,0.583064198,0.459544383,0.171430794,0.70512171,0,27.97384588,40.88688655,0,1,0,900,3,1,0,1,0.75,0,0,0,1600,1,1,1
0,0.0054,0,0.0945,0.07813289,0,0.525704331,0.125291857,0.268457374,0.067926125,0.049679059,0.01184008,0.025369222,0.006419019,1.066866438,950,0.8899,0.1101,0.579983528,0,0.100398139,0.873003007,0,39.835711,14.17137994,0,1,0,900,3,1,0,1,0.73,0,0,0,1600,1,1,1
0,0.0036,0.0045,0.1114,0.102413231,0,0.569997342,0.180380165,0.157799119,0.075592345,0.063497704,0.02009435,0.017578822,0.008420987,1.1383752,919,0.9112,0.0888,0.576587802,0.333010179,0.172808815,0.705369292,0,30.93539873,37.16882868,0,1,0,900,3,1,0,1,0.74,0,0,0,1600,1,1,1
0,0,0.032321707,0.057965569,0.05454157,0,0.508430935,0.050201946,0.323637823,0.107374535,0.029471488,0.002909984,0.018759851,0.006224026,0.940324876,841.8586541,0.660544814,0.28006372,0.8,0.001544918,0.187603886,0.805521286,0.010411078,56.88612955,19.81306023,0,1,0,1050,2.441447302,3.89247017,0,0,0.812,1,1,0,1500,1,1,0
0,0,0.03627,0.0077,0.0478,0.0041,0.103766234,0.221168831,0.34012987,0.334935065,0.000799,0.001703,0.002619,0.002579,1.31,291.83,0.529,0.2,0.1,0.084446152,0.229154016,0.698279463,0.028195521,62.00911829,24.93198524,0,0,1,1100,1,5,0,0,0.821,1,1,1,1600,0,0,0
0,0,0.0367,0.0862,0.110646696,0,0.541763341,0.267981439,0.107888631,0.082366589,0.0467,0.0231,0.0093,0.0071,1.016197608,901.7604839,0.1737,0.8263,0.6,0.005964215,0.198807157,0.795228628,0,25,12,1,0,0,938.7083957,3.043253004,3.885543959,0,0,0.831,1,1,1,900,1,1,1
0,0.017,0,0.0874,0.140359777,0,0.501992032,0.241699867,0.103585657,0.152722444,0.043874104,0.021124568,0.009053386,0.013347942,1.112901438,664.4124913,0.2795,0.7205,0.6,0,0.194174757,0.776699029,0,25,12,1,0,0,929.7664003,2.859316572,4.284284621,0,0,0.75,0,0,0,900,1,1,1
0,0.0353,0.0387,0.0939,0.12379745,0,0.48348745,0.214002642,0.149273448,0.15323646,0.045399472,0.020094848,0.014016777,0.014388904,1.044028852,655.4730726,0.2513,0.7487,0.6,0.005753497,0.191783239,0.767132956,0.006562822,25,12,1,0,0,946.3035193,2.989254077,4.392266851,0,0,0.832,1,1,1,900,1,1,1
0,0.0353,0.0332,0.0934,0.11180715,0,0.561027837,0.137044968,0.165952891,0.135974304,0.0524,0.0128,0.0155,0.0127,1.030037215,627.8508611,0.3422,0.6578,0.6,0.005753497,0.191783239,0.767132956,0.006562822,25,12,1,0,0,926.6818337,3.170682734,3.679394837,0,0,0.851,1,1,1,900,1,1,1
0,0.0291,0.023785658,0.05239499,0.056729326,0.000319701,0.459099267,0.091873304,0.340042294,0.112972278,0.024054502,0.004813701,0.017816513,0.005919181,1.01,429,0.375,0.628,0.5,0.033788148,0.115107164,0.461314698,1,62.29951808,7.683138705,0,1,0,800,1,2,0,1,0.754,0,0,0,1600,1,1,0
0,0.0001,0.0001,0.0249,0.0026,0,0.360843373,0.076144578,0.360080321,0.202931727,0.008985,0.001896,0.008966,0.005053,1.04,1014,0.87,0.13,0.718978055,0.010888154,0.266666667,0.533333333,0.2,66.81593627,19.21845997,0,1,0,1050,1,5.665469356,1,1,0.78,1,0,0,1600,0,0,0
0,0,0.0405,0.066,0.06049482,0,0.521714095,0.091114344,0.318665333,0.068506228,0.03443313,0.006013547,0.021031912,0.004521411,1.04,550,0.56933,0.43067,0.35,0.006715753,0.03162565,0.827327444,0.134331152,25,24,0,1,0,950,2,2,0,0,0.745,0,0,0,1600,1,1,1
0.1028,0.002791322,0.01156,0.08255,0.083480564,0,0.461704563,0.140485745,0.26227954,0.157880034,0.038113712,0.011597098,0.021651176,0.013032997,2.96,697.2057448,0.3261,0.5669,0.341,0.010837466,0.706484111,0.282678423,0,25,24,1,0,0,1000,2,2,0,0,0.81,1,1,0,1600,1,1,1
0,0,0.02156,0.045695765,0.071932941,0,0.2259,0.519,0.1864,0.0687,0.010322673,0.023716102,0.008517691,0.003139299,1.097314907,1237.9,0.3924268,0.629980578,0.488442229,0.004489519,0.313109683,0.613780421,0.682400798,25,8,1,0,0,900,0.5,3.915203695,1,1,0.837,1,1,1,1600,1,0,0
0.02247,0,0.00975,0.047412139,0.078513985,0,0.1669,0.327,0.4593,0.0468,0.007913086,0.015503769,0.021776395,0.002218888,1.059655572,790,0.392464657,0.61899893,0.457863138,0.004489519,0.313109683,0.607041001,0.682400798,25,8,1,0,0,900,0.5,4.615936247,1,0,0.752,0,0,0,1600,0,0,0
0,0,0.0037,0.0419,0,0,0.4609375,0.01,0.5390625,0.01,0.019313281,0.000419,0.022586719,0.000419,1.064,889,0.270982539,0.532941415,0.617206283,0.031298367,0.058823529,0.470588235,0.470588235,60,24,1,0,0,950,2,5.384216438,0,1,0.818,1,1,0,1600,1,0,0
0,0.000815517,0.0225,0.040874424,0.040349847,0,0.553854465,0.089716219,0.248073023,0.066460771,0.022638482,0.003667099,0.010139842,0.002716546,0.96,1381.1,0.384369277,0.5138701,0.524142739,0.013325037,0.099588477,0.801646091,0.098765432,50.33264132,16.75078901,0,1,0,900,1,3.483013138,1,1,0.791,1,0,0,1600,1,1,0
0,0.008,0,0.0619,0.094100574,0,0.463273214,0.137348888,0.266034298,0.125023253,0.028676612,0.008501896,0.016467523,0.007738939,1.256,1563,0.319553195,0.594098698,0.461112375,0,0.085724697,0.909902523,0,70,4,1,0,0,1000,1,6,1,1,0.76,0,0,0,1600,1,1,0
0,0,0.0159,0.0408,0.033,0,0.4136,0.0845,0.3265,0.1754,0.01687488,0.0034476,0.0133212,0.00715632,1.14,1556,0.252251152,0.592387608,0.530704521,0.011997819,0.102708598,0.885293583,0,25,24,1,0,0,950,2,4.313175717,1,1,0.78,1,0,0,1600,1,0,0
0,0,0.0097,0.0269,0.0158,0,0.321764086,0.093554746,0.398926373,0.170026065,0.008655454,0.002516623,0.010731119,0.004573701,1.081691605,449,0.327997407,0.514431284,0.565784403,0.75,0.148518483,0.706095042,0.125,25,336,0,1,0,1000,1,5.188007749,0,1,0.79,1,0,0,900,0,0,0
0,0,0.026,0.0267,0.109092295,0,0.493168584,0.180957662,0.206469371,0.091638694,0.013167601,0.00483157,0.005512732,0.002446753,1.005959962,1168.43,0.33770506,0.644656538,0.6,0.003322259,0.199335548,0.797342193,0,25,18,1,0,0,1000,5,3,0,0,0.792,1,0,0,1600,1,0,0
0,0,0.028,0.0277,0.109863845,0,0.489854983,0.19461785,0.200810757,0.0893027,0.013568983,0.005390914,0.005562458,0.002473685,1.009288225,1126.263557,0.32691363,0.652074405,0.6,0.003322259,0.195348837,0.797342193,0,25,18,1,0,0,1000,5,3,0,0,0.811,1,1,0,1600,1,0,0
0,0,0.012351484,0.031639055,0.028117267,0,0.377889399,0.036033493,0.466075013,0.128520639,0.011956063,0.001140066,0.014746173,0.004066272,1.124700221,1270,0.359695892,0.550225425,0.598217936,0.012748122,0.333333333,0.666666667,0,180,18,1,0,0,1050,0.5,5.861434257,0,1,0.778,0,0,0,1600,1,0,0
0,0,0,0.077199634,0.153431194,0,0.508218842,0.242449155,0.222947961,0.024762747,0.039234309,0.018716986,0.017211501,0.001911675,1.145303841,2195,0.290796673,0.648393681,0.45,0,0.15,0.8,0,25,1,1,0,0,850,2,5,0,0,0.751,0,0,0,1600,1,1,1
0,0,0.003,0.072,0.0968,0,0.448683503,0.067705535,0.435249866,0.048361096,0.032305212,0.004874799,0.03133799,0.003481999,1.166994744,1112,0.1,0.9,0.6,0.009212787,0.111709353,0.864430629,0,36.41032605,12.64716393,0,0,1,950,3,4.363140818,0,0,0.82,1,1,1,1600,1,1,1
0,0,0.015911514,0.0774,0.080010108,0,0.355292567,0.188757251,0.384361959,0.071588222,0.027499645,0.014609811,0.029749616,0.005540928,1.19,926,0.06765,0.1272,0.5,0.030962149,0.036739942,0.932297908,0,25,24,1,0,0,900,4,5,0,1,0.77,0,0,0,900,1,1,0
0,0,0.018341032,0.065122571,0.086235269,0,0.451819686,0.120967742,0.307278743,0.11993383,0.02942366,0.00787773,0.020010782,0.007810399,0.83,993,0.324520365,0.615057263,0.45,0,0.092271022,0.906154741,0,120,12,1,0,0,900,3,4.824810631,0,0,0.817,1,1,0,1600,1,1,0
0,0,0.005,0.0531,0.0393,0,0.39728936,0.063244373,0.41436514,0.146875849,0.021096065,0.003358276,0.022002789,0.007799108,1.388698823,1360,0.627463248,0.337148795,0.6,0.00218794,0.212772327,0.427161296,0.355190789,400,1,0,1,0,1050,1,15,1,1,0.78,1,0,0,1600,1,1,0
0.0086,0,0.0025,0.0684,0.05219,0,0.62616503,0.261743507,0.084783149,0.027308314,0.042829688,0.017903256,0.005799167,0.001867889,1.156349399,948,0.9,0.1,0.4,0.00218794,0.459138374,0.538673686,0,220,26,0,0,1,1000,1,5.567389921,0,0,0.581,0,0,0,1600,1,1,1
0.0077,0,0.002,0.06726,0.05281,0,0.643184086,0.237412693,0.095978714,0.023424508,0.043260562,0.015968378,0.006455528,0.001575532,1.154968349,1054,0.9,0.1,0.4,0.00218794,0.459138374,0.538673686,0,220,26,0,0,1,1000,1,5.617838463,0,0,0.662,0,0,0,1600,1,1,1
0.0045,0,0.0022,0.05126,0.05514,0,0.616360752,0.251117566,0.120697114,0.011824568,0.031594652,0.012872286,0.006186934,0.000606127,1.210805894,1188,0.9,0.1,0.4,0.00218794,0.459138374,0.538673686,0,220,26,0,0,1,1000,1,6.043742797,0,0,0.804,1,1,0,1600,1,1,1
0,0,0.015839586,0.029548553,0.031998243,0,0.316632713,-0.000256853,0.565938742,0.118226525,0.009356039,-7.59E-06,0.016722671,0.003493423,0.991907694,791.8542094,0.194123144,0.560005798,0.8,0.004907959,0.189570755,0.805521286,0,60,24,1,0,0,1100,1,5.527524871,0,0,0.87,1,1,1,900,0,0,0
0,0,0.015839586,0.029548553,0.031998243,0,0.316632713,-0.000256853,0.565938742,0.118226525,0.009356039,-7.59E-06,0.016722671,0.003493423,0.991907694,791.8542094,0.194123144,0.560005798,0.8,0.004907959,0.189570755,0.805521286,0,60,24,1,0,0,1100,1,5.527524871,0,0,0.87,1,1,1,900,0,0,0
0.043,0,0.056,0.072044619,0.072780143,0,0.641737621,0.201095504,0.087640328,0.069526547,0.046233742,0.014487849,0.006314014,0.005009014,1.002326114,904.3096638,0.351161598,0.604913487,1,0.001545008,0.197739964,0.790959856,0.009755172,42.74823257,28.5972028,0,1,0,850,4,5,0,0,0.753,0,0,0,1600,1,1,1
0.18,0,0.055,0.072376688,0.102172736,0,0.572562761,0.259380821,0.100549987,0.067506431,0.041440196,0.018773125,0.007277475,0.004885892,1.384655315,876.0777829,0.356548575,0.587502588,1,0.001545008,0.197739964,0.790959856,0.009755172,39.16770917,25.40145408,0,1,0,950,4,5,0,0,0.753,0,0,0,1600,1,1,1
0.01,0,0.072,0.047765264,0.081351971,0,0.59013683,0.40986317,0.01,0.01,0.028188041,0.019577223,0.000477653,0.000477653,0.955106438,850.1001373,0.351666687,0.599132485,1,0.001545008,0.197739964,0.790959856,0.009755172,32.75497406,25.0685507,0,1,0,1050,4,5,0,0,0.651,0,0,0,1600,1,1,0
0,0,0.0141,0.076,0.1139,0,0.6169,0.183,0.1635,0.0367,0.0468844,0.013908,0.012426,0.0027892,1.021130071,1466.2,0.9054,0.0946,0.6,0.001998441,0.199844122,0.798157437,0,25,24,1,0,0,950,2,3.731792595,0,0,0.77,0,0,0,1600,1,1,1
0,0,0.0139,0.0759,0.1199,0,0.5131,0.1638,0.2615,0.061,0.03894429,0.01243242,0.01984785,0.0046299,0.995389205,1255.4,0.9504,0.0496,0.6,0.002720308,0.199699572,0.79758012,0,120,4,1,0,0,950,2,3.846627837,0,0,0.73,0,0,0,1600,1,1,1
0,0,0.029061646,0.0428,0.0679,0.0013,0.198,0.607,0.195,0.01,0.0084744,0.0259796,0.008346,0.000428,1.026513573,1326.04,0.371072407,0.511900221,0.7,0.00258608,0.190543745,0.806870174,0,60,6,0,1,0,1000,1,4.525939093,0,0,0.78,1,0,0,1600,0,0,0
0,0,0.017279047,0.0594,0.066,0.0021,0.388,0.3,0.31,0.002,0.0230472,0.01782,0.018414,0.0001188,1.02480771,1173.51,0.300500501,0.434834835,0.7,0.003322506,0.19040306,0.806274434,0,60,6,0,1,0,1000,1,4.75121736,0,0,0.81,1,1,0,1600,1,1,0
0,0,0.017733185,0.0541,0.0656,0.0021,0.357,0.232,0.41,0.001,0.0193137,0.0125512,0.022181,0.0000541,1.040510018,1062.67,0.2279117,0.503373344,0.7,0.004057844,0.190262583,0.805679573,0,60,6,0,1,0,1000,1,4.832570594,0,0,0.79,1,0,0,1600,1,0,0
0,0,0.014631651,0.0519,0.0717,0.0025,0.279,0.102,0.619,0.01,0.0144801,0.0052938,0.0321261,0.000519,0.996118685,1183.78,0.273114259,0.540241239,0.7,0.004792098,0.190122312,0.805085589,0,60,6,0,1,0,1000,1,5.248152715,0,0,0.79,1,0,0,1600,1,0,0
0,0.06,0.027,0.0967,0.098129791,0,0.664991625,0.115070301,0.145271814,0.074666261,0.06430469,0.011127298,0.014047784,0.007220227,1.06,473.73,0.85,0.15,0.8,0.014268381,0.109015917,0.876715703,0,70,12,0,1,0,900,2,2,0,0,0.77,0,0,0,1600,1,1,1
0,0,0.0101,0.0519,0.075184546,0,0.320074096,0.106658867,0.43287511,0.140391927,0.016611846,0.005535595,0.022466218,0.007286341,1,806.5404231,0.360287164,0.627143428,0.50952,0.00730405,0.088773596,0.895495646,0,25,3,0,1,0,950,2,5,0,1,0.78,1,0,0,1600,1,0,0
0,0,0.0183,0.0493,0.065192659,0,0.247,0.0653,0.445,0.2428,0.0121771,0.00321929,0.0219385,0.01197004,1.02,729.5385935,0.361734888,0.624245408,0.50952,0.006669491,0.110799985,0.878655038,0,25,3,0,1,0,950,2,5,0,1,0.79,1,0,0,1600,1,0,0
0,0,0.0259,0.0418,0.061723802,0,0.23442198,0.098185588,0.571591498,0.095800933,0.009798839,0.004104158,0.023892525,0.004004479,1.04,837.9189444,0.302774733,0.62868291,0.50952,0.008936712,0.112724992,0.873320287,0,25,3,0,1,0,950,2,5,0,1,0.774,0,0,0,1600,0,0,0
0,0,0.00363,0.053578701,0.05129715,0,0.394410638,0.10671625,0.449628127,0.049244985,0.02113201,0.005717718,0.024090491,0.002638482,1.02,1068.2,0.98,0.01,0.255,0.00111263,0.197739964,0.799109896,0,60,12,1,0,0,1100,1,5,0,0,0.79,1,0,0,1600,1,1,0
0,0.13848381,0,0.001,0.063,0,0.662516824,0.337483176,0.01,0.01,0.000662517,0.000337483,0.00001,0.00001,1.27,629.0353472,0.397531535,0.553995082,0.5,0.066,0.264,0.67,0,25,1,0,1,0,950,3,5,0,0,0.642,0,0,0,1600,0,0,0
0,0.017955711,0,0.018,0.055,0,0.126274152,0.240529439,0.344895786,0.288300624,0.002272935,0.00432953,0.006208124,0.005189411,1.17,509.9080338,0.552579648,0.378226365,0.5,0.0825,0.2475,0.67,0,25,1,0,1,0,950,3,5,0,0,0.636,0,0,0,1600,0,0,0
0,0.022369254,0,0.008,0.319,0,0.657064784,0.011613344,0.166344074,0.164977798,0.005256518,9.29E-05,0.001330753,0.001319822,1.22,632.040358,0.449669224,0.454400323,0.5,0.1089,0.2178,0.67,0,25,1,0,1,0,950,3,5,0,0,0.63,0,0,0,1600,0,0,0
0,0.025,0,0.0944,0.0728,0,0.534,0.187,0.279,0.01,0.0504096,0.0176528,0.0263376,0.000944,1.144804264,570,0.2,0.8,0.51,0.001748079,0.035084379,0.962680273,0.000487269,25,3,1,0,0,910,2,5,0,0,0.78,1,0,0,1600,1,1,1
0,0,0.0308,0.0252,0.0359,0,0.6495,0.0625,0.268,0.05,0.0163674,0.001575,0.0067536,0.00126,0.89,1135.4379,0.42,0.23,0.6,0.050822263,0.102478703,0.821079359,0.025619676,60,24,1,0,0,950,2,5,1,1,0.82,1,1,1,1600,1,0,0
0,0,0.02111678,0.0206,0.0618,0,0.160568442,0.226723293,0.414407057,0.198301209,0.00330771,0.0046705,0.008536785,0.004085005,0.98,805.08,0.302827111,0.616324374,0.56,0.01374826,0.111471596,0.874780144,0,25,24,1,0,0,1100,1,5,0,0,0.777,0,0,0,1600,0,0,0
0,0,0.017908428,0.0165,0.064,0,0.377707646,0.069717401,0.349591163,0.20298379,0.006232176,0.001150337,0.005768254,0.003349233,1.04,770.24,0.288599951,0.576309153,0.56,0.013733105,0.111348715,0.873815828,0.001102352,25,24,1,0,0,1100,1,5,1,0,0.7255,0,0,0,1600,0,0,0
0,0,0.0093,0.0538,0.064,0,0.4067,0.1582,0.3494,0.0857,0.02188046,0.00851116,0.01879772,0.00461066,1.05,596.1,0.874,0.125146,0.8,0.004546167,0.331817944,0.663635889,0,25,1,1,0,0,1000,2,5,0,0,0.771,0,0,0,1600,1,1,0
0,0,0.0093,0.0663,0.0589,0,0.4578,0.1957,0.27,0.0764,0.03035214,0.01297491,0.017901,0.00506532,1.03,1304.5,0.574856266,0.425143733,0.8,0.004546167,0.331817944,0.663635889,0,25,1,1,0,0,1000,2,5,0,0,0.782,1,0,0,1600,1,1,1
0,0,0.0095,0.055489888,0.055794899,0,0.565760571,0.01,0.339236683,0.095002746,0.031393991,0.000554899,0.018824206,0.005271692,0.95,691,0.5479,0.27397,0.6,0.007099322,0.19076151,0.802139168,0,60,24,1,0,0,1000,5,4.146000969,0,0,0.841,1,1,1,900,1,1,1
0,0,0.0095,0.05540226,0.056079902,0,0.604322767,0.01,0.315273775,0.080403458,0.033480847,0.000554023,0.01746688,0.004454533,0.95,998,0.6,0.355,0.6,0.007071856,0.190023509,0.799035924,0.003868711,60,24,1,0,0,1000,5,4.267918844,0,0,0.871,1,1,1,900,1,1,1
0,0,0.0095,0.061447034,0.057088746,0,0.604322767,0.01,0.315273775,0.080403458,0.037133842,0.00061447,0.019372638,0.004940554,0.95,998,0.6,0.355,0.2,0.007071856,0.190023509,0.799035924,0.003868711,60,24,1,0,0,1000,5,4.329222968,0,0,0.81,1,1,0,900,1,1,1
0,0,0.0095,0.055551663,0.057902293,0,0.604322767,0.01,0.315273775,0.080403458,0.033571135,0.000555517,0.017513983,0.004466546,0.95,998,0.6,0.355,0.4,0.007071856,0.190023509,0.799035924,0.003868711,60,24,1,0,0,1000,5,4.420056672,0,0,0.847,1,1,1,900,1,1,1
0,0,0.0095,0.053337529,0.050143327,0,0.604322767,0.01,0.315273775,0.080403458,0.032233083,0.000533375,0.016815924,0.004288522,0.95,998,0.6,0.355,0.8,0.007071856,0.190023509,0.799035924,0.003868711,60,24,1,0,0,1000,5,4.193769972,0,0,0.868,1,1,1,900,1,1,1
0,0,0.0095,0.055299297,0.050680849,0,0.604322767,0.01,0.315273775,0.080403458,0.033418624,0.000552993,0.017434418,0.004446255,0.95,998,0.6,0.355,1,0.007071856,0.190023509,0.799035924,0.003868711,60,24,1,0,0,1000,5,4.212752737,0,0,0.876,1,1,1,900,1,1,1
0,0,0.014546541,0.0717,0.0952,0,0.409,0.105,0.353,0.133,0.0293253,0.0075285,0.0253101,0.0095361,0.966,543,0.236179529,0.588533114,0.42,0.018931954,0.189319538,0.757278153,0.034470355,100,4,1,0,0,800,3,5,0,0,0.71071,0,0,0,1600,1,1,0
0,0,0.020588791,0.0609,0.1048,0,0.334,0.092,0.433,0.139,0.0203406,0.0056028,0.0263697,0.0084651,1.014,554,0.218031886,0.631995602,0.42,0.018931954,0.189319538,0.757278153,0.034470355,100,4,1,0,0,900,3,5,0,0,0.7689,0,0,0,1600,1,1,0
0,0,0.023641251,0.0156,0.0637,0,0.281,0.067,0.479,0.173,0.0043836,0.0010452,0.0074724,0.0026988,1.192,344,0.093209238,0.493140296,0.42,0.018931954,0.189319538,0.757278153,0.034470355,100,4,1,0,0,1000,3,5,0,0,0.5835,0,0,0,1600,0,0,0
0,0,0.0264,0.046,0.072835435,0,0.502173913,0.130434783,0.208695652,0.091304348,0.0231,0.006,0.0096,0.0042,1.008853139,1015.5,0.693284936,0.306715064,0.5,0.110750637,0.17808932,0.711160043,0,28,12,1,0,0,1000,3,3,0,1,0.762,0,0,0,1600,1,1,0
0,0,0.0344,0.043,0.059833766,0.032,0.374418605,0.164285714,0.427906977,0.254658385,0.0161,0.007064286,0.0184,0.010950311,1.086025873,980.9,0.621582734,0.378417266,0.5,0.091957338,0.147869306,0.590483146,0.16969021,28,12,1,0,0,1000,3,3,0,1,0.765,0,0,0,1600,1,0,0
0,0,0.008617422,0.0292,0.0425,0,0.17,0.01,0.5133,0.3146,0.004964,0.000292,0.01498836,0.00918632,0.8255,1063,0,0.81413505,0.6,0.004984518,0.199340457,0.795675025,0,25,24,1,0,0,1100,1,5.075166712,1,0,0.765,0,0,0,1600,0,0,0
0.025471008,0,0.006214192,0.0356,0.0371,0,0.2,0.01,0.6593,0.1361,0.00712,0.000356,0.02347108,0.00484516,0.6532,1110,0.468187836,0.417646601,0.6,0.004984518,0.199340457,0.795675025,0,25,24,1,0,0,1100,1,5.625458941,1,0,0.794,1,0,0,1600,0,0,0
0,0,0.006846817,0.0169,0.118,0,0.513730228,0.29865993,0.187609842,0.01,0.008682041,0.005047353,0.003170606,0.000169,0.915,792.9,0.52,0.48,0.598631097,0.110831234,0.177833753,0.711335013,0,25,24,1,0,0,950,1,5,1,0,0.748,0,0,0,1600,0,0,0
0,0.024752498,0,0.0468,0.0194,0,0.580952381,0.33877551,0.080272109,0.01,0.027188571,0.015854694,0.003756735,0.000468,1.134169498,494,0.452,0.435,0.6,0.239382951,0.229303669,0.53131338,0,25,24,1,0,0,800,2,5,0,0,0.77,0,0,0,900,1,1,0
0,0.058991292,0,0.0736,0.102,0,0.723175966,0.173819742,0.103004292,0.01,0.053225751,0.012793133,0.007581116,0.000736,1.233152579,653,0.248,0.721,0.6,0.01542161,0.014772279,0.034228451,0.93557766,25,24,1,0,0,800,2,5,0,0,0.77,0,0,0,900,1,1,1
0.00975,0,0.006655,0.031,0.0326,0,0.4396,0.01,0.3491,0.2112,0.0136276,0.00031,0.0108221,0.0065472,1.02,615,0.1724,0.5948,0.6,0.004153784,0.191521763,0.804324453,0,60,24,1,0,0,1100,1,5,0,0,0.82,1,1,1,900,1,0,0
0.007796,0,0.0078,0.0312,0.0327,0,0.4464,0.01,0.3589,0.1947,0.01392768,0.000312,0.01119768,0.00607464,0.93,833,0.2067,0.4837,0.6,0.004154481,0.191385928,0.804459591,0,60,24,1,0,0,1100,1,5,0,0,0.842,1,1,1,900,1,0,0
0.0078,0,0.0059,0.031,0.031,0,0.5206,0.01,0.3498,0.129,0.0161386,0.00031,0.0108438,0.003999,0.99,1157,0.2452,0.5572,0.6,0.004154981,0.191288625,0.804556394,0,60,24,1,0,0,1100,1,5,0,0,0.86,1,1,1,900,1,0,0
0.0103,0,0.005726,0.0318,0.0364,0,0.4414,0.01,0.3364,0.2227,0.01403652,0.000318,0.01069752,0.00708186,0.96,754,0.2571,0.4709,0.6,0.004155357,0.191215494,0.804629149,0,60,24,1,0,0,1100,1,5,0,0,0.838,1,1,1,900,1,0,0
0.00975,0,0.006655,0.031,0.0326,0,0.4396,0.01,0.3491,0.2112,0.0136276,0.00031,0.0108221,0.0065472,1.02,615,0.1724,0.5948,0.2,0.004153784,0.191521763,0.804324453,0,60,24,1,0,0,1100,1,5,0,0,0.796,1,0,0,900,1,0,0
0.007796,0,0.0078,0.0312,0.0327,0,0.4464,0.01,0.3589,0.1947,0.01392768,0.000312,0.01119768,0.00607464,0.93,833,0.2067,0.4837,0.2,0.004154481,0.191385928,0.804459591,0,60,24,1,0,0,1100,1,5,0,0,0.796,1,0,0,900,1,0,0
0.0078,0,0.0059,0.031,0.031,0,0.5206,0.01,0.3498,0.129,0.0161386,0.00031,0.0108438,0.003999,0.99,1157,0.2452,0.5572,0.2,0.004154981,0.191288625,0.804556394,0,60,24,1,0,0,1100,1,5,0,0,0.82,1,1,1,900,1,0,0
0.0103,0,0.005726,0.0318,0.0364,0,0.4414,0.01,0.3364,0.2227,0.01403652,0.000318,0.01069752,0.00708186,0.96,754,0.2571,0.4709,0.2,0.004155357,0.191215494,0.804629149,0,60,24,1,0,0,1100,1,5,0,0,0.767,0,0,0,900,1,0,0
0.00975,0,0.006655,0.031,0.0326,0,0.4396,0.01,0.3491,0.2112,0.0136276,0.00031,0.0108221,0.0065472,1.02,615,0.1724,0.5948,0.8,0.004153784,0.191521763,0.804324453,0,60,24,1,0,0,1100,1,5,0,0,0.846,1,1,1,900,1,0,0
0.007796,0,0.0078,0.0312,0.0327,0,0.4464,0.01,0.3589,0.1947,0.01392768,0.000312,0.01119768,0.00607464,0.93,833,0.2067,0.4837,0.8,0.004154481,0.191385928,0.804459591,0,60,24,1,0,0,1100,1,5,0,0,0.861,1,1,1,900,1,0,0
0.0078,0,0.0059,0.031,0.031,0,0.5206,0.01,0.3498,0.129,0.0161386,0.00031,0.0108438,0.003999,0.99,1157,0.2452,0.5572,0.8,0.004154981,0.191288625,0.804556394,0,60,24,1,0,0,1100,1,5,0,0,0.878,1,1,1,900,1,0,0
0.0103,0,0.005726,0.0318,0.0364,0,0.4414,0.01,0.3364,0.2227,0.01403652,0.000318,0.01069752,0.00708186,0.96,754,0.2571,0.4709,0.8,0.004155357,0.191215494,0.804629149,0,60,24,1,0,0,1100,1,5,0,0,0.854,1,1,1,900,1,0,0
0,0,0.0353,0.0869,0.0775,0,0.530153322,0.132197615,0.151618399,0.186030664,0.046070324,0.011487973,0.013175639,0.016166065,1.098,654.9459021,0.309559526,0.625442464,0.5,0.009175248,0.109925669,0.880899083,0,35,24,1,0,0,900,3,5,0,0,0.781,1,0,0,1600,1,1,1
0.0057,0,0.0159,0.061074286,0.068562152,0,0.385,0.227,0.269,0.117,0.0235136,0.013863863,0.016428983,0.007145691,1.07,876,0.701742476,0.3,0.61115498,0.046689027,0.238341117,0.714969856,0,60,6,1,0,0,800,1,3.892927657,0,0,0.728,0,0,0,1600,1,1,0
0.0057,0,0.0159,0.058786245,0.059441092,0,0.406,0.149,0.313,0.133,0.023867215,0.008759151,0.018400095,0.007818571,1.04,876,0.701742476,0.3,0.61115498,0.046689027,0.238341117,0.714969856,0,60,6,1,0,0,900,1,3.675669335,0,0,0.7951,1,0,0,1600,1,1,0
0.0057,0,0.0159,0.046968258,0.057745145,0,0.3,0.142,0.343,0.184,0.014090477,0.006669493,0.016110112,0.008642159,1.01,876,0.701742476,0.3,0.61115498,0.046689027,0.238341117,0.714969856,0,60,6,1,0,0,1000,1,4.394996402,0,0,0.748,0,0,0,1600,1,0,0
0,0,0.02368659,0.1244,0.1193,0,0.4607,0.1921,0.3472,0.01,0.05731108,0.02389724,0.04319168,0.001244,1.17,705.1,0,1,0.203821656,0.052564103,0.105128205,0.842307692,0,25,24,1,0,0,900,3,3,0,0,0.736,0,0,0,1600,1,1,1
0,0,0.033394509,0.1187,0.1161,0,0.4437,0.2005,0.3558,0.01,0.05266719,0.02379935,0.04223346,0.001187,1.12,765.9,0,0.625500462,0.203821656,0.051374476,0.102748951,0.823244646,0.022631928,25,24,1,0,0,900,3,3,0,0,0.77,0,0,0,1600,1,1,1
0,0,0.03966095,0.1182,0.1127,0,0.4311,0.1906,0.3783,0.01,0.05095602,0.02252892,0.04471506,0.001182,1.04,793.3,0,0.731588811,0.203821656,0.050237504,0.100475008,0.80502537,0.044262118,25,24,1,0,0,900,3,3,0,0,0.78,1,0,0,1600,1,1,1
0,0,0.049597471,0.1036,0.1134,0,0.4217,0.19,0.3883,0.01,0.04368812,0.019684,0.04022788,0.001036,1.11,844.9,0,0.708261559,0.203821656,0.048108136,0.096216272,0.770903546,0.084772046,25,24,1,0,0,900,3,3,0,0,0.7521,0,0,0,1600,1,1,1
0,0,0.071082048,0.0698,0.0621,0,0.4153,0.1734,0.4113,0.01,0.02898794,0.01210332,0.02870874,0.000698,1.05,274.9,0,0.497876788,0.203821656,0.044348613,0.088697227,0.710659487,0.156294673,25,24,1,0,0,900,3,3,0,0,0.689,0,0,0,1600,1,1,0
0.035,0,0.03,0.0686,0.0712,0,0.460641399,0.188046647,0.290087464,0.06122449,0.0316,0.0129,0.0199,0.0042,0.45,1089,0.206,0.794,0.5,0.006173221,0.493857646,0.493857646,0.006111488,80,24,0,1,0,1000,10,10,0,1,0.7,0,0,0,1600,1,1,1
0.06,0,0.057,0.0647,0.0924,0,0.446625048,0.221197237,0.253739384,0.078438332,0.028896641,0.014311461,0.016416938,0.00507496,0.48,755,0.264,0.736,0.5,0.012196609,0.487864374,0.487864374,0.012074643,80,24,0,1,0,1000,10,10,0,1,0.79,1,0,0,1600,1,1,0
0.045,0,0.088,0.046,0.0803,0,0.432608696,0.254347826,0.217391304,0.095652174,0.0199,0.0117,0.01,0.0044,0.5,829,0.255,0.745,0.5,0.023815194,0.476303882,0.476303882,0.023577042,80,24,0,1,0,1000,10,10,0,1,0.79,1,0,0,1600,1,0,0
0,0,0.0362,0.0965,0.103343682,0.0098,0.1716,0.409,0.4194,0.01,0.0165594,0.0394685,0.0404721,0.000965,1.05,974,0.075740944,0.875045737,0.509295816,0.014395787,0.111111111,0.888888889,0,35,4,1,0,0,900,3,5,0,0,0.78,1,0,0,1600,1,0,0
0,0,0.042007655,0.1151,0.132196022,0,0.5435,0.2815,0.175,0.01,0.06255685,0.03240065,0.0201425,0.001151,1.069042547,681,0.314,0.686,0.5,0.019385488,0.195884019,0.784730492,0,25,24,1,0,0,900,2,4.074907809,0,1,0.78,1,0,0,1600,1,1,1
0,0,0.042053028,0.109,0.129144067,0,0.5238,0.2792,0.197,0.01,0.0570942,0.0304328,0.021473,0.00109,1.068473336,691,0.244,0.756,0.5,0.019385488,0.195884019,0.784730492,0,25,24,1,0,0,900,2,4.301900132,0,1,0.765,0,0,0,1600,1,1,1
0,0,0.043297874,0.1057,0.126033906,0,0.5274,0.2889,0.1837,0.01,0.05574618,0.03053673,0.01941709,0.001057,1.056915686,714,0.23,0.77,0.5,0.019385488,0.195884019,0.784730492,0,25,24,1,0,0,900,2,4.283359764,0,1,0.742,0,0,0,1600,1,1,1
0,0,0.039317912,0.1071,0.129093588,0,0.5261,0.2787,0.1952,0.01,0.05634531,0.02984877,0.02090592,0.001071,1.069919392,771,0.191,0.809,0.5,0.019385488,0.195884019,0.784730492,0,25,24,1,0,0,900,2,4.31418803,0,1,0.718,0,0,0,1600,1,1,1
0,0,0.0272,0.0287,0.039,0,0.324,0.049,0.46,0.167,0.0092988,0.0014063,0.013202,0.0047929,1.020312428,465,0.453763441,0.546236559,0.4,0.004556737,0.182269477,0.766865484,0.046308302,60,24,1,0,0,1100,1,4.856877504,0,0,0.7,0,0,0,1600,0,0,0
0,0,0.0429,0.0347,0.0295,0,0.348,0.052,0.471,0.129,0.0120756,0.0018044,0.0163437,0.0044763,1.070936826,650,0.269230769,0.730769231,0.4,0.004355061,0.174202457,0.732924973,0.088517509,60,24,1,0,0,1100,1,4.899608441,0,0,0.77,0,0,0,1600,1,0,0
0,0,0.0267,0.0334,0.0364,0,0.302,0.052,0.445,0.208,0.0100868,0.0017368,0.014863,0.0069472,1.014963528,493,0.626774848,0.373225152,0.4,0.004000911,0.160036431,0.673324009,0.162638649,60,24,1,0,0,1100,1,4.927592742,0,0,0.735,0,0,0,1600,1,0,0
0.0195,0,0.1331,0.0307,0.053,0,0.324666667,0.051,0.458666667,0.168,0.009967267,0.0015657,0.014081067,0.0051576,1.000635614,541.1006373,0.315125101,0.577254461,0.4,0.004777998,0.191119916,0.804102086,0,60,24,1,0,0,1100,1,5.114775988,0,0,0.7,0,0,0,1600,0,0,0
0.038446354,0,0.013822866,0.0794,0.0558,0,0.6129,0.0651531,0.2559937,0.0659532,0.04866426,0.005173156,0.0203259,0.005236684,1.02,1393,0.420616114,0.579383886,0.642,0.01980198,0.198019802,0.782178218,0,120,4,1,0,0,800,2,1,1,1,0.798,1,0,0,1600,1,1,1
0.030145998,0,0.031748023,0.0725,0.0567,0,0.6009,0.0756889,0.2747845,0.0486266,0.04356525,0.005487445,0.019921876,0.003525429,1.01,1393,0.3716916,0.6283084,0.642,0.01980198,0.198019802,0.782178218,0,120,4,1,0,0,900,2,1,1,1,0.82,1,1,1,1600,1,1,1
0.025885863,0,0.025571195,0.0678,0.0543,0,0.3725,0.1037354,0.4338959,0.0898687,0.0252555,0.00703326,0.029418142,0.006093098,0.99,1211,0.259332024,0.740667976,0.642,0.01980198,0.198019802,0.782178218,0,120,4,1,0,0,1000,2,1,1,1,0.759,0,0,0,1600,1,1,0
0.007358253,0,0.017054415,0.0331,0.0339,0,0.6195,0.0597733,0.2520891,0.0686376,0.02050545,0.001978496,0.008344149,0.002271905,1.12,1257,0.440860215,0.559139785,0.642,0.01980198,0.198019802,0.782178218,0,120,4,1,0,0,900,1,1,1,1,0.784,1,0,0,1600,1,1,0
0,0,0.0204,0.0443,0.0325,0,0.5185,0.2273,0.1857,0.0685,0.02296955,0.01006939,0.00822651,0.00303455,1.060315262,1104.727559,0.358918586,0.581431683,0.2,0.001705674,0.140757334,0.55127378,0.306263211,25,24,1,0,0,900,0.5,3.758712825,0,1,0.829,1,1,1,1600,1,1,0
0.021937625,0,0.009366259,0.0339,0.0342,0,0.3217,0.1783,0.4498,0.0502,0.01090563,0.00604437,0.01524822,0.00170178,1.08440895,969.9889013,0.357546531,0.555633783,0.2,0.001705674,0.140757334,0.55127378,0.306263211,25,24,1,0,0,900,0.5,4.119356911,0,1,0.743,0,0,0,1600,1,0,0
0,0,0.0154,0.072,0.052096923,0,0.445806068,0.01,0.429030339,0.125163593,0.032098037,0.00072,0.030890184,0.009011779,1.092233056,497,0.7,0.295774648,0.404040404,0.024761679,0.470471904,0.495233583,0.009532833,60,12,1,0,0,1000,1,5,0,0,0.76124,0,0,0,1600,1,1,1
0,0,0.0185,0.0535,0.049239646,0,0.41152019,0.01,0.423198733,0.165281077,0.02201633,0.000535,0.022641132,0.008842538,1.091780491,626,0.520766773,0.479233227,0.404040404,0.037142519,0.458091065,0.495233583,0.009532833,60,12,1,0,0,1000,1,5,0,0,0.77222,0,0,0,1600,1,1,0
0,0,0.029,0.0245,0.039231153,0,0.371589085,0.01,0.466406787,0.162004127,0.009103933,0.000245,0.011426966,0.003969101,1.095135974,494,0.55465587,0.443319838,0.404040404,0.049523358,0.445710225,0.495233583,0.009532833,60,12,1,0,0,1000,1,5,0,0,0.71574,0,0,0,1600,0,0,0
0,0,0.0085,0.0424,0.0343,0.0243,0.399690911,0.194629576,0.289771081,0.115908432,0.016946895,0.008252294,0.012286294,0.004914518,1.1,1650.55,0.377136752,0.445818071,0.764331212,0.129032258,0.096774194,0.774193548,0,25,24,0,1,0,1000,2,5,1,0,0.76,0,0,0,1600,1,0,0
0.033729371,0,0.020204023,0.0674,0.0731,0,0.126610759,0.250051135,0.412354265,0.210983841,0.008533565,0.016853446,0.027792677,0.014220311,1.156,640,0.424594547,0.575405453,0.788,0.0096,0.1904,0.8,0,130,24,1,0,0,900,1.79110915,5,0,0,0.75958,0,0,0,1600,0,0,0
0,0,0.018196677,0.0421,0.0797,0,0.126610759,0.250051135,0.412354265,0.210983841,0.005330313,0.010527153,0.017360115,0.00888242,1.103,817,0.457022118,0.542977882,0.788,0.0096,0.1904,0.8,0,130,24,1,0,0,1000,1.30314075,5,0,0,0.76155,0,0,0,1600,0,0,0
0,0,0.013895895,0.032,0.0646,0,0.126610759,0.250051135,0.412354265,0.210983841,0.004051544,0.008001636,0.013195336,0.006751483,1.063,407,0.146017961,0.853982039,0.788,0.0096,0.1904,0.8,0,130,24,1,0,0,1100,1.506883316,5,0,0,0.68278,0,0,0,1600,0,0,0
0.0049,0,0.00687,0.0968,0.113297119,0,0.522641317,0.236123888,0.241234795,0.01,0.050591679,0.022856792,0.023351528,0.000968,1.05,726,0.275700968,0.703275378,0.5,0.017172477,0.086278314,0.89654921,0,35,4,1,0,0,900,3,5,0,0,0.761,0,0,0,1600,1,1,1
0,0,0.038,0.0709,0.073193011,0,0.561847988,0.154992548,0.283159463,0.01,0.039835022,0.010988972,0.020076006,0.000709,1.044224182,1057.6,0.959364732,0.040635268,0.407436656,0.008031933,0.24339191,0.730175729,0.018400428,71.55096592,10.51665929,1,0,0,950,3,2,0,0,0.736,0,0,0,1600,1,1,1
0,0,0.010310748,0.0436,0.0673,0,0.543,0.171,0.232,0.054,0.0236748,0.0074556,0.0101152,0.0023544,0.9,2313.4,0.616,0.384,0.4,0.000964477,0.048223874,0.950811649,0,60,0.5,0,1,0,900,1,5,1,1,0.772,0,0,0,1600,1,1,0
0,0,0.012078772,0.051,0.0657,0,0.586,0.115,0.234,0.065,0.029886,0.005865,0.011934,0.003315,0.98,1498.5,0.555,0.445,0.4,0.001927096,0.048177408,0.949895496,0,60,0.5,0,1,0,900,1,5,1,1,0.77,0,0,0,1600,1,1,0
0,0,0.016511328,0.0712,0.0524,0,0.651,0.105,0.201,0.053,0.0463512,0.007476,0.0143112,0.0037736,1.02,1288.7,0.641,0.359,0.4,0.002887862,0.048131031,0.948981107,0,60,0.5,0,1,0,900,1,5,1,1,0.777,0,0,0,1600,1,1,1
0,0,0.013417898,0.0594,0.0589,0,0.528,0.143,0.272,0.057,0.0313632,0.0084942,0.0161568,0.0033858,0.91,1186.4,0.751,0.249,0.4,0.00384678,0.048084744,0.948068477,0,60,0.5,0,1,0,900,1,5,1,1,0.773,0,0,0,1600,1,1,1
0,0,0.03737,0.0248,0.083983403,0,0.666540643,0.192060491,0.141398866,0.01,0.016530208,0.0047631,0.003506692,0.000248,0.981407882,1217,0.698356511,0.301643489,0.6,0.157433543,0.168513291,0.674053166,0,25,24,1,0,0,950,1,5,0,1,0.805,1,1,0,1600,1,0,0
0,0,0.03179,0.0199,0.090512866,0,0.489669421,0.283057851,0.227272727,0.01,0.009744421,0.005632851,0.004522727,0.000199,0.973013944,1003,0.709735577,0.290264423,0.6,0.01151584,0.197696832,0.790787328,0,25,24,1,0,0,950,1,5,0,1,0.797,1,0,0,1600,0,0,0
0,0,0.03759,0.0152,0.089970536,0,0.306024096,0.569477912,0.124497992,0.01,0.004651566,0.008656064,0.001892369,0.000152,1.010810667,912,0.75501047,0.24498953,0.6,0.015360378,0.196927924,0.787711698,0,25,24,1,0,0,950,1,5,0,1,0.793,1,0,0,1600,0,0,0
0,0,0.0159,0.0301,0.069562429,0.00808,0.167217449,0.124586913,0.708195638,0.01,0.005033245,0.003750066,0.021316689,0.000301,1.04,498,0.325033422,0.622159091,0.511565836,0.009083402,0.110101844,0.880814754,0,35,6,1,0,0,900,3,5,0,1,0.693,0,0,0,1600,0,0,0
0,0,0.0143,0.0621,0.088185988,0.01051,0.29851842,0.226174586,0.475306994,0.01,0.018537994,0.014045442,0.029516564,0.000621,1,611,0.061011153,0.827692069,0.530946301,0.008991562,0.108988634,0.871909072,0.010110731,35,6,1,0,0,900,3,5,1,1,0.767,0,0,0,1600,1,0,0
0,0.075919004,0,0.0381,0.0592,0,0.19625545,0.356604258,0.239292126,0.207848166,0.007477333,0.013586622,0.00911703,0.007919015,1.180754379,260.52,0.545294027,0.454705973,0.51,0.142857143,0,0.857142857,0,25,12,1,0,0,900,3,2,0,1,0.5975,0,0,0,1600,0,0,0
0,0.011644455,0,0.0038,0.6809,0,0.398386596,0.01,0.115834109,0.485779295,0.001513869,0.000038,0.00044017,0.001845961,1.196755689,342.37,0.915676023,0.084323977,0.51,0.141176471,0,0.847058824,0.011764706,25,12,1,0,0,900,3,2,0,1,0.64094,0,0,0,1600,0,0,0
0,0.033558516,0,0.0536,0.0517,0,0.174012952,0.51859202,0.092646752,0.214748277,0.009327094,0.027796532,0.004965866,0.011510508,1.15462437,234.3,0.664874093,0.335125907,0.51,0.142857143,0,0.857142857,0,25,12,1,0,0,900,3,2,0,1,0.72102,0,0,0,1600,0,0,0
0,0.031405117,0,0.0374,0.2766,0,0.278241572,0.309309944,0.143717637,0.268730846,0.010406235,0.011568192,0.00537504,0.010050534,1.152660077,418.75,0.80119403,0.19880597,0.51,0.141176471,0,0.847058824,0.011764706,25,12,1,0,0,900,3,2,0,1,0.59295,0,0,0,1600,1,0,0
0,0,0.0613,0.1378,0.0421,0,0.7927,0.1098,0.0791,0.0184,0.10923406,0.01513044,0.01089998,0.00253552,0.993,835,0.235040099,0.764959901,0.22,0.017084195,0.170841952,0.812073853,0,25,24,0,1,0,800,3,3.730846956,0,1,0.708,0,0,0,1600,1,1,1
